IESNA:LM-63-2002
[TEST] 826708
[TESTLAB] UL Verification Services
[ISSUEDATE] 4/26/2020
[MANUFAC] COOPER CROUSE-HINDS
[LUMCAT] VMVL-3-W-R3-UNV1
[LUMINAIRE] N/A
[LAMPCAT] N/A. LUMINAIRE OUTPUT
[LAMP] N/A
[_AGI32] File was generated from AGi32
TILT=NONE
1 2702 0.91686 37 17 1 1 -0.58 -0.58 0
1 1 26
0 2.5 5 7.5 10 12.5 15 17.5 20 22.5 25 27.5 30 32.5 35 37.5 40 42.5 45 47.5 50 52.5 55 57.5 60 62.5 65 67.5 70 72.5 75 77.5 80 82.5 85 87.5 90
0 22.5 45 67.5 90 112.5 135 157.5 180 202.5 225 247.5 270 292.5 315 337.5 360
649.086 708.772 774.645 832.057 852.073 853.711 860.171 877.276 905.936 931.412 959.072 983.092 1010.114 1021.942 1016.21 1002.562 976.541 961.892 926.317 889.286 839.062 823.049 794.389 756.539 711.957 629.706 510.516 401.971 276.958 201.713 161.589 
125.468 98.173 69.967 45.947 27.568 10.19
649.086 704.041 764.91 820.411 848.616 854.803 856.077 865.812 888.103 913.579 931.685 953.612 969.262 985.639 994.465 986.913 970.809 954.431 947.698 921.95 878.004 824.141 804.67 781.651 734.794 675.108 585.306 464.751 347.107 264.493 212.723 172.416 
138.843 106.27 74.699 48.586 6.005
649.086 691.303 735.613 784.744 828.235 853.529 862.264 862.628 867.541 892.562 912.851 944.332 974.084 999.742 1024.49 1051.512 1068.526 1060.065 1034.68 1016.028 1010.569 989.551 930.32 841.337 759.724 697.035 628.705 529.987 402.244 264.493 160.497 
125.923 103.541 86.982 68.057 34.938 10.645
649.086 671.468 696.671 723.603 756.084 788.566 818.773 853.62 885.192 909.394 930.32 941.057 951.247 965.986 980.726 997.012 1013.298 1031.132 1052.149 1084.449 1111.107 1137.493 1135.855 1119.114 1117.294 1123.481 1118.295 1076.078 935.051 795.208 
583.577 260.49 121.829 86.254 44.128 18.197 12.647
649.086 657.002 659.003 664.553 671.468 680.749 688.483 698.036 714.777 731.245 744.984 756.175 768.64 785.199 795.39 803.214 811.312 830.055 854.348 890.014 937.053 990.188 1049.419 1098.46 1156.873 1181.166 1199.908 1191.538 1062.976 792.114 324.088 
154.674 87.164 58.958 27.023 13.466 11.919
649.086 618.515 595.132 571.931 552.824 540.268 539.995 549.185 558.192 566.108 563.014 551.095 527.712 506.877 485.768 461.111 435.909 418.803 411.889 409.523 409.159 412.252 418.53 427.811 436.727 438.82 414.709 361.847 310.258 252.665 191.796 110.365 
68.148 41.671 22.928 8.371 11.373
649.086 601.774 552.824 524.619 539.449 541.815 533.535 520.615 503.874 475.578 428.994 366.396 300.523 259.216 242.111 230.465 221.093 212.723 204.807 195.89 190.067 185.518 184.517 187.975 192.706 193.889 182.334 151.126 110.729 79.612 60.323 49.587 
42.854 38.942 25.931 6.369 4.731
649.086 582.576 524.71 528.44 526.075 509.333 493.32 471.393 433.725 371.582 323.269 291.243 266.677 253.029 247.57 244.84 244.021 237.198 232.921 226.734 223.277 218.819 211.995 205.444 203.169 197.892 169.596 136.113 103.268 81.34 73.061 65.691 53.408 
36.121 21.654 5.095 2.366
649.086 575.57 518.887 528.895 515.338 497.596 477.762 448.282 394.692 347.289 307.256 276.23 252.028 244.112 239.29 240.746 245.75 243.021 239.836 236.925 234.104 230.92 226.734 224.005 223.368 210.994 179.604 146.304 114.095 84.707 73.243 62.325 49.041 
33.937 18.925 3.912 0.819
649.086 582.576 524.71 528.44 526.075 509.333 493.32 471.393 433.725 371.582 323.269 291.243 266.677 253.029 247.57 244.84 244.021 237.198 232.921 226.734 223.277 218.819 211.995 205.444 203.169 197.892 169.596 136.113 103.268 81.34 73.061 65.691 53.408 
36.121 21.654 5.095 2.366
649.086 601.774 552.824 524.619 539.449 541.815 533.535 520.615 503.874 475.578 428.994 366.396 300.523 259.216 242.111 230.465 221.093 212.723 204.807 195.89 190.067 185.518 184.517 187.975 192.706 193.889 182.334 151.126 110.729 79.612 60.323 49.587 
42.854 38.942 25.931 6.369 4.731
649.086 618.515 595.132 571.931 552.824 540.268 539.995 549.185 558.192 566.108 563.014 551.095 527.712 506.877 485.768 461.111 435.909 418.803 411.889 409.523 409.159 412.252 418.53 427.811 436.727 438.82 414.709 361.847 310.258 252.665 191.796 110.365 
68.148 41.671 22.928 8.371 11.373
649.086 657.002 659.003 664.553 671.468 680.749 688.483 698.036 714.777 731.245 744.984 756.175 768.64 785.199 795.39 803.214 811.312 830.055 854.348 890.014 937.053 990.188 1049.419 1098.46 1156.873 1181.166 1199.908 1191.538 1062.976 792.114 324.088 
154.674 87.164 58.958 27.023 13.466 11.919
649.086 671.468 696.671 723.603 756.084 788.566 818.773 853.62 885.192 909.394 930.32 941.057 951.247 965.986 980.726 997.012 1013.298 1031.132 1052.149 1084.449 1111.107 1137.493 1135.855 1119.114 1117.294 1123.481 1118.295 1076.078 935.051 795.208 
583.577 260.49 121.829 86.254 44.128 18.197 12.647
649.086 691.303 735.613 784.744 828.235 853.529 862.264 862.628 867.541 892.562 912.851 944.332 974.084 999.742 1024.49 1051.512 1068.526 1060.065 1034.68 1016.028 1010.569 989.551 930.32 841.337 759.724 697.035 628.705 529.987 402.244 264.493 160.497 
125.923 103.541 86.982 68.057 34.938 10.645
649.086 704.041 764.91 820.411 848.616 854.803 856.077 865.812 888.103 913.579 931.685 953.612 969.262 985.639 994.465 986.913 970.809 954.431 947.698 921.95 878.004 824.141 804.67 781.651 734.794 675.108 585.306 464.751 347.107 264.493 212.723 172.416 
138.843 106.27 74.699 48.586 6.005
649.086 708.772 774.645 832.057 852.073 853.711 860.171 877.276 905.936 931.412 959.072 983.092 1010.114 1021.942 1016.21 1002.562 976.541 961.892 926.317 889.286 839.062 823.049 794.389 756.539 711.957 629.706 510.516 401.971 276.958 201.713 161.589 
125.468 98.173 69.967 45.947 27.568 10.19
