IESNA:LM-63-2002
[TEST] 826715
[TESTLAB] UL Verification Services
[ISSUEDATE] 4/26/2020
[MANUFAC] COOPER CROUSE-HINDS
[LUMCAT] PVML-5-W-R3-UNV1
[LUMINAIRE] N/A
[LAMPCAT] N/A. LUMINAIRE OUTPUT
[LAMP] N/A
[_AGI32] File was generated from AGi32
TILT=NONE
1 4041 1.01737 37 17 1 1 -0.58 -0.58 0
1 1 43
0 2.5 5 7.5 10 12.5 15 17.5 20 22.5 25 27.5 30 32.5 35 37.5 40 42.5 45 47.5 50 52.5 55 57.5 60 62.5 65 67.5 70 72.5 75 77.5 80 82.5 85 87.5 90
0 22.5 45 67.5 90 112.5 135 157.5 180 202.5 225 247.5 270 292.5 315 337.5 360
928.529 1001.872 1059.20 1119.804 1161.844 1176.768 1174.584 1188.415 1198.789 1214.076 1242.558 1278.32 1302.616 1328.55 1330.188 1323.363 1322.18 1316.083 1277.956 1222.084 1141.916 1082.495 1026.441 957.011 872.384 759.184 616.229 464.173 322.219 
270.169 243.143 224.489 213.478 172.711 135.494 85.082 30.666
928.529 996.685 1052.739 1109.794 1155.838 1179.77 1178.86 1186.595 1197.97 1204.794 1223.904 1246.744 1271.586 1289.512 1303.89 1308.531 1302.889 1299.067 1294.699 1263.942 1206.887 1113.98 1043.822 984.492 896.771 803.409 677.105 525.232 368.991 279.086
 240.868 219.211 192.822 159.426 123.30 80.714 28.573
928.529 982.854 1033.448 1075.579 1124.081 1163.027 1185.594 1192.692 1200.791 1217.261 1238.827 1262.759 1296.246 1332.19 1363.584 1398.89 1437.473 1439.202 1423.732 1407.717 1399.163 1373.957 1306.074 1192.146 1080.311 983.946 880.756 732.158 545.433 
343.967 220.576 172.893 149.052 123.482 87.721 39.675 18.927
928.529 954.372 987.586 1020.617 1049.554 1075.488 1107.246 1145.92 1182.955 1220.992 1255.207 1281.869 1305.892 1329.369 1351.481 1376.596 1399.709 1427.736 1461.314 1511.362 1559.317 1599.993 1598.082 1583.34 1574.878 1576.151 1559.681 1462.679 1254.024
 1026.532 698.217 324.221 187.089 106.557 64.517 27.481 18.745
928.529 932.169 935.991 942.087 949.64 956.192 963.927 974.755 987.495 998.414 1011.154 1019.98 1030.445 1040.455 1050.464 1059.109 1071.667 1094.507 1130.359 1179.952 1245.925 1326.821 1397.161 1453.306 1522.009 1568.963 1568.599 1514.365 1363.584 
994.046 390.83 231.04 123.027 79.349 35.398 18.199 14.65
928.529 900.593 882.849 867.47 860.464 858.644 857.461 857.188 852.001 841.627 819.515 780.933 733.523 688.207 643.255 599.03 561.995 534.332 517.315 510.40 510.127 515.132 524.049 531.966 541.157 540.52 503.575 437.056 374.906 311.39 228.583 135.13 
97.821 63.061 29.574 11.284 9.282
928.529 884.214 855.641 845.813 828.342 794.673 771.105 756.272 734.706 687.206 604.854 501.937 413.67 362.621 335.049 316.122 303.292 292.736 283.636 273.90 265.983 261.524 264.527 270.988 277.267 272.899 245.236 199.828 147.505 109.651 86.265 73.889 
67.792 54.689 29.301 8.918 5.278
928.529 869.199 840.262 819.242 769.922 742.441 727.518 700.219 635.156 541.612 453.163 397.564 367.899 351.247 339.326 333.775 333.229 333.229 330.864 325.768 316.122 304.656 301.199 297.286 292.099 270.169 226.217 178.171 131.49 108.832 98.185 86.72 
72.16 54.598 33.396 9.646 4.004
928.529 864.922 836.895 803.136 753.816 731.066 712.048 668.552 592.388 500.754 423.589 375.179 352.157 341.237 337.506 337.597 342.693 341.328 344.513 343.239 332.319 318.761 319.944 319.034 311.663 286.002 234.407 190.001 138.224 112.563 96.092 82.716 
63.88 48.501 25.661 8.372 6.097
928.529 869.199 840.262 819.242 769.922 742.441 727.518 700.219 635.156 541.612 453.163 397.564 367.899 351.247 339.326 333.775 333.229 333.229 330.864 325.768 316.122 304.656 301.199 297.286 292.099 270.169 226.217 178.171 131.49 108.832 98.185 86.72 
72.16 54.598 33.396 9.646 4.004
928.529 884.214 855.641 845.813 828.342 794.673 771.105 756.272 734.706 687.206 604.854 501.937 413.67 362.621 335.049 316.122 303.292 292.736 283.636 273.90 265.983 261.524 264.527 270.988 277.267 272.899 245.236 199.828 147.505 109.651 86.265 73.889 
67.792 54.689 29.301 8.918 5.278
928.529 900.593 882.849 867.47 860.464 858.644 857.461 857.188 852.001 841.627 819.515 780.933 733.523 688.207 643.255 599.03 561.995 534.332 517.315 510.40 510.127 515.132 524.049 531.966 541.157 540.52 503.575 437.056 374.906 311.39 228.583 135.13 
97.821 63.061 29.574 11.284 9.282
928.529 932.169 935.991 942.087 949.64 956.192 963.927 974.755 987.495 998.414 1011.154 1019.98 1030.445 1040.455 1050.464 1059.109 1071.667 1094.507 1130.359 1179.952 1245.925 1326.821 1397.161 1453.306 1522.009 1568.963 1568.599 1514.365 1363.584 
994.046 390.83 231.04 123.027 79.349 35.398 18.199 14.65
928.529 954.372 987.586 1020.617 1049.554 1075.488 1107.246 1145.92 1182.955 1220.992 1255.207 1281.869 1305.892 1329.369 1351.481 1376.596 1399.709 1427.736 1461.314 1511.362 1559.317 1599.993 1598.082 1583.34 1574.878 1576.151 1559.681 1462.679 1254.024
 1026.532 698.217 324.221 187.089 106.557 64.517 27.481 18.745
928.529 982.854 1033.448 1075.579 1124.081 1163.027 1185.594 1192.692 1200.791 1217.261 1238.827 1262.759 1296.246 1332.19 1363.584 1398.89 1437.473 1439.202 1423.732 1407.717 1399.163 1373.957 1306.074 1192.146 1080.311 983.946 880.756 732.158 545.433 
343.967 220.576 172.893 149.052 123.482 87.721 39.675 18.927
928.529 996.685 1052.739 1109.794 1155.838 1179.77 1178.86 1186.595 1197.97 1204.794 1223.904 1246.744 1271.586 1289.512 1303.89 1308.531 1302.889 1299.067 1294.699 1263.942 1206.887 1113.98 1043.822 984.492 896.771 803.409 677.105 525.232 368.991 279.086
 240.868 219.211 192.822 159.426 123.30 80.714 28.573
928.529 1001.872 1059.20 1119.804 1161.844 1176.768 1174.584 1188.415 1198.789 1214.076 1242.558 1278.32 1302.616 1328.55 1330.188 1323.363 1322.18 1316.083 1277.956 1222.084 1141.916 1082.495 1026.441 957.011 872.384 759.184 616.229 464.173 322.219 
270.169 243.143 224.489 213.478 172.711 135.494 85.082 30.666
